SpectraSuite Data File
++++++++++++++++++++++++++++++++++++
Date: Fri May 31 11:19:02 EEST 2013
User: OO Maya
Dark Spectrum Present: No
Reference Spectrum Present: No
Number of Sampled Component Spectra: 1
Spectrometers: MAYP11278
Integration Time (usec): 250000 (MAYP11278)
Spectra Averaged: 1 (MAYP11278)
Boxcar Smoothing: 0 (MAYP11278)
Correct for Electrical Dark: No (MAYP11278)
Strobe/Lamp Enabled: No (MAYP11278)
Correct for Detector Non-linearity: No (MAYP11278)
Correct for Stray Light: No (MAYP11278)
Number of Pixels in Processed Spectrum: 2068
>>>>>Begin Processed Spectral Data<<<<<
188,05	2302,00
188,53	2216,00
189,01	2190,00
189,49	2189,00
189,96	2807,00
190,44	2912,00
190,92	3010,00
191,40	3016,00
191,88	3036,00
192,36	2977,00
192,83	3008,00
193,31	2971,00
193,79	2955,00
194,27	2983,00
194,75	3017,00
195,23	2979,00
195,70	3014,00
196,18	3016,00
196,66	2992,00
197,14	3070,00
197,62	3002,00
198,09	2981,00
198,57	2997,00
199,05	2969,00
199,53	3025,00
200,01	3034,00
200,48	2989,00
200,96	3011,00
201,44	3021,00
201,92	3060,00
202,39	3037,00
202,87	2972,00
203,35	3019,00
203,83	3028,00
204,31	3062,00
204,78	3078,00
205,26	3016,00
205,74	3015,00
206,22	3084,00
206,69	3031,00
207,17	3066,00
207,65	3120,00
208,13	3049,00
208,60	3068,00
209,08	3029,00
209,56	3049,00
210,04	3080,00
210,51	3036,00
210,99	3010,00
211,47	3077,00
211,94	3025,00
212,42	3033,00
212,90	3094,00
213,38	3070,00
213,85	3038,00
214,33	3113,00
214,81	3062,00
215,29	3089,00
215,76	3058,00
216,24	3076,00
216,72	3052,00
217,19	3065,00
217,67	3037,00
218,15	3070,00
218,62	3114,00
219,10	3034,00
219,58	3038,00
220,05	3042,00
220,53	3087,00
221,01	3119,00
221,49	3002,00
221,96	3117,00
222,44	3081,00
222,92	3098,00
223,39	3054,00
223,87	3099,00
224,35	3072,00
224,82	3059,00
225,30	3042,00
225,78	3068,00
226,25	3097,00
226,73	3086,00
227,21	3121,00
227,68	3076,00
228,16	3102,00
228,63	3076,00
229,11	3089,00
229,59	3088,00
230,06	3085,00
230,54	3088,00
231,02	3098,00
231,49	3119,00
231,97	3108,00
232,45	3121,00
232,92	3078,00
233,40	3090,00
233,87	3094,00
234,35	3197,00
234,83	3094,00
235,30	3068,00
235,78	3066,00
236,25	3049,00
236,73	3102,00
237,21	3162,00
237,68	3119,00
238,16	3126,00
238,63	3122,00
239,11	3100,00
239,59	3106,00
240,06	3076,00
240,54	3131,00
241,01	3129,00
241,49	3121,00
241,96	3106,00
242,44	3146,00
242,92	3144,00
243,39	3087,00
243,87	3085,00
244,34	3126,00
244,82	3172,00
245,29	3110,00
245,77	3149,00
246,24	3115,00
246,72	3093,00
247,20	3110,00
247,67	3159,00
248,15	3150,00
248,62	3127,00
249,10	3085,00
249,57	3119,00
250,05	3124,00
250,52	3098,00
251,00	3129,00
251,47	3126,00
251,95	3176,00
252,42	3166,00
252,90	3098,00
253,37	3167,00
253,85	3115,00
254,32	3130,00
254,80	3128,00
255,27	3124,00
255,75	3152,00
256,22	3127,00
256,70	3127,00
257,17	3165,00
257,65	3188,00
258,12	3215,00
258,60	3149,00
259,07	3109,00
259,55	3104,00
260,02	3111,00
260,50	3163,00
260,97	3119,00
261,45	3105,00
261,92	3170,00
262,40	3116,00
262,87	3157,00
263,35	3146,00
263,82	3070,00
264,30	3151,00
264,77	3156,00
265,25	3126,00
265,72	3140,00
266,19	3134,00
266,67	3146,00
267,14	3085,00
267,62	3100,00
268,09	3130,00
268,57	3142,00
269,04	3044,00
269,51	3034,00
269,99	3054,00
270,46	3106,00
270,94	3128,00
271,41	3094,00
271,89	3116,00
272,36	3085,00
272,83	3128,00
273,31	3069,00
273,78	3137,00
274,26	3171,00
274,73	3116,00
275,20	3095,00
275,68	3059,00
276,15	3066,00
276,63	3090,00
277,10	3050,00
277,57	2974,00
278,05	2993,00
278,52	2905,00
279,00	3043,00
279,47	2904,00
279,94	2985,00
280,42	3232,00
280,89	3380,00
281,36	3599,00
281,84	3411,00
282,31	3349,00
282,78	3237,00
283,26	3212,00
283,73	3224,00
284,21	3141,00
284,68	3118,00
285,15	3195,00
285,63	3140,00
286,10	3192,00
286,57	3157,00
287,05	3107,00
287,52	3149,00
287,99	3163,00
288,47	3148,00
288,94	3151,00
289,41	3096,00
289,89	3179,00
290,36	3123,00
290,83	3149,00
291,30	3134,00
291,78	3149,00
292,25	3204,00
292,72	3116,00
293,20	3171,00
293,67	3140,00
294,14	3164,00
294,62	3148,00
295,09	3135,00
295,56	3145,00
296,03	3162,00
296,51	3186,00
296,98	3224,00
297,45	3155,00
297,93	3182,00
298,40	3121,00
298,87	3162,00
299,34	3193,00
299,82	3124,00
300,29	3128,00
300,76	3163,00
301,23	3170,00
301,71	3190,00
302,18	3150,00
302,65	3122,00
303,12	3156,00
303,60	3170,00
304,07	3133,00
304,54	3150,00
305,01	3097,00
305,49	3176,00
305,96	3178,00
306,43	3148,00
306,90	3201,00
307,38	3128,00
307,85	3131,00
308,32	3144,00
308,79	3157,00
309,27	3155,00
309,74	3194,00
310,21	3196,00
310,68	3147,00
311,15	3192,00
311,63	3125,00
312,10	3189,00
312,57	3146,00
313,04	3195,00
313,51	3181,00
313,99	3143,00
314,46	3197,00
314,93	3188,00
315,40	3165,00
315,87	3201,00
316,34	3170,00
316,82	3163,00
317,29	3190,00
317,76	3193,00
318,23	3296,00
318,70	3174,00
319,17	3213,00
319,65	3179,00
320,12	3219,00
320,59	3270,00
321,06	3192,00
321,53	3174,00
322,00	3159,00
322,48	3157,00
322,95	3224,00
323,42	3183,00
323,89	3231,00
324,36	3160,00
324,83	3196,00
325,30	3190,00
325,78	3169,00
326,25	3205,00
326,72	3177,00
327,19	3205,00
327,66	3191,00
328,13	3214,00
328,60	3223,00
329,07	3171,00
329,54	3179,00
330,02	3216,00
330,49	3190,00
330,96	3194,00
331,43	3207,00
331,90	3240,00
332,37	3184,00
332,84	3276,00
333,31	3241,00
333,78	3209,00
334,25	3235,00
334,72	3224,00
335,20	3229,00
335,67	3296,00
336,14	3176,00
336,61	3228,00
337,08	3189,00
337,55	3223,00
338,02	3195,00
338,49	3200,00
338,96	3268,00
339,43	3269,00
339,90	3239,00
340,37	3221,00
340,84	3179,00
341,31	3245,00
341,78	3243,00
342,25	3203,00
342,72	3243,00
343,19	3258,00
343,67	3252,00
344,14	3218,00
344,61	3221,00
345,08	3216,00
345,55	3244,00
346,02	3241,00
346,49	3232,00
346,96	3234,00
347,43	3286,00
347,90	3225,00
348,37	3239,00
348,84	3253,00
349,31	3212,00
349,78	3225,00
350,25	3240,00
350,72	3263,00
351,19	3209,00
351,66	3253,00
352,13	3280,00
352,60	3303,00
353,07	3289,00
353,54	3258,00
354,01	3260,00
354,48	3247,00
354,94	3268,00
355,41	3267,00
355,88	3299,00
356,35	3227,00
356,82	3303,00
357,29	3270,00
357,76	3315,00
358,23	3326,00
358,70	3222,00
359,17	3246,00
359,64	3253,00
360,11	3254,00
360,58	3328,00
361,05	3335,00
361,52	3278,00
361,99	3276,00
362,46	3261,00
362,93	3263,00
363,39	3281,00
363,86	3335,00
364,33	3265,00
364,80	3247,00
365,27	3297,00
365,74	3286,00
366,21	3259,00
366,68	3271,00
367,15	3303,00
367,62	4306,00
368,09	3212,00
368,55	3282,00
369,02	3314,00
369,49	3243,00
369,96	3308,00
370,43	3307,00
370,90	3300,00
371,37	3286,00
371,84	3310,00
372,31	3278,00
372,77	3259,00
373,24	3284,00
373,71	3304,00
374,18	3260,00
374,65	3237,00
375,12	3286,00
375,59	3284,00
376,05	3307,00
376,52	3262,00
376,99	3268,00
377,46	3278,00
377,93	3302,00
378,40	3253,00
378,86	3269,00
379,33	3296,00
379,80	3292,00
380,27	3341,00
380,74	3341,00
381,21	3292,00
381,67	3333,00
382,14	3350,00
382,61	3229,00
383,08	3315,00
383,55	3322,00
384,02	3361,00
384,48	3280,00
384,95	3458,00
385,42	3323,00
385,89	3300,00
386,36	3314,00
386,82	3377,00
387,29	3288,00
387,76	3306,00
388,23	3352,00
388,69	3306,00
389,16	3328,00
389,63	3267,00
390,10	3320,00
390,57	3325,00
391,03	3342,00
391,50	3351,00
391,97	3300,00
392,44	3380,00
392,90	3263,00
393,37	3324,00
393,84	3351,00
394,31	3336,00
394,77	3376,00
395,24	3321,00
395,71	3339,00
396,18	3500,00
396,64	3296,00
397,11	3340,00
397,58	3354,00
398,05	3329,00
398,51	3294,00
398,98	3285,00
399,45	3312,00
399,92	3387,00
400,38	3300,00
400,85	3358,00
401,32	3307,00
401,78	3340,00
402,25	3344,00
402,72	3319,00
403,18	3302,00
403,65	3353,00
404,12	3314,00
404,59	3370,00
405,05	3376,00
405,52	3393,00
405,99	3308,00
406,45	3321,00
406,92	3350,00
407,39	3366,00
407,85	3327,00
408,32	3343,00
408,79	3345,00
409,25	3322,00
409,72	3413,00
410,19	3303,00
410,65	3357,00
411,12	3313,00
411,59	3372,00
412,05	3328,00
412,52	3269,00
412,99	3343,00
413,45	3320,00
413,92	3341,00
414,39	3359,00
414,85	3416,00
415,32	3368,00
415,78	3424,00
416,25	3321,00
416,72	3344,00
417,18	3394,00
417,65	3339,00
418,12	3330,00
418,58	3370,00
419,05	3374,00
419,51	3349,00
419,98	3354,00
420,45	3374,00
420,91	3299,00
421,38	3346,00
421,84	3319,00
422,31	3346,00
422,78	3332,00
423,24	3375,00
423,71	3343,00
424,17	3370,00
424,64	3360,00
425,11	3343,00
425,57	3385,00
426,04	3380,00
426,50	3332,00
426,97	3359,00
427,43	3365,00
427,90	3358,00
428,37	3317,00
428,83	3377,00
429,30	3381,00
429,76	3369,00
430,23	3328,00
430,69	3456,00
431,16	3316,00
431,62	3333,00
432,09	3386,00
432,55	3349,00
433,02	3321,00
433,48	3315,00
433,95	3372,00
434,42	3329,00
434,88	3399,00
435,35	3310,00
435,81	3348,00
436,28	3371,00
436,74	3329,00
437,21	3368,00
437,67	3337,00
438,14	3372,00
438,60	3341,00
439,07	3324,00
439,53	3473,00
440,00	3354,00
440,46	3388,00
440,93	3362,00
441,39	3329,00
441,86	3333,00
442,32	3426,00
442,79	3304,00
443,25	3318,00
443,72	3308,00
444,18	3329,00
444,64	3375,00
445,11	3372,00
445,57	3383,00
446,04	3364,00
446,50	3353,00
446,97	3328,00
447,43	3313,00
447,90	3306,00
448,36	3325,00
448,83	3358,00
449,29	3336,00
449,75	3354,00
450,22	3289,00
450,68	3260,00
451,15	3332,00
451,61	3310,00
452,08	3316,00
452,54	3307,00
453,00	3332,00
453,47	3291,00
453,93	3311,00
454,40	3310,00
454,86	3321,00
455,32	3270,00
455,79	3286,00
456,25	3336,00
456,72	3281,00
457,18	3301,00
457,64	3268,00
458,11	3251,00
458,57	3206,00
459,04	3235,00
459,50	3245,00
459,96	3260,00
460,43	3211,00
460,89	3192,00
461,36	3250,00
461,82	3238,00
462,28	3171,00
462,75	3166,00
463,21	3245,00
463,67	3169,00
464,14	3179,00
464,60	3137,00
465,06	3137,00
465,53	3105,00
465,99	3179,00
466,45	3131,00
466,92	3130,00
467,38	3131,00
467,84	3099,00
468,31	3141,00
468,77	3102,00
469,23	3083,00
469,70	3012,00
470,16	3064,00
470,62	3065,00
471,09	3037,00
471,55	3056,00
472,01	2994,00
472,48	3018,00
472,94	3001,00
473,40	3047,00
473,87	3026,00
474,33	2972,00
474,79	2975,00
475,25	2946,00
475,72	2991,00
476,18	2953,00
476,64	2946,00
477,11	2942,00
477,57	2956,00
478,03	2987,00
478,49	2933,00
478,96	2977,00
479,42	2920,00
479,88	2936,00
480,35	2934,00
480,81	2896,00
481,27	2857,00
481,73	2862,00
482,20	2908,00
482,66	2819,00
483,12	2863,00
483,58	2826,00
484,05	2840,00
484,51	2877,00
484,97	2882,00
485,43	2812,00
485,89	2780,00
486,36	2796,00
486,82	2759,00
487,28	2822,00
487,74	2759,00
488,21	2773,00
488,67	2747,00
489,13	2781,00
489,59	2768,00
490,05	2790,00
490,52	2742,00
490,98	2770,00
491,44	2735,00
491,90	2772,00
492,36	2723,00
492,83	2779,00
493,29	2771,00
493,75	2742,00
494,21	2732,00
494,67	2741,00
495,14	2728,00
495,60	2730,00
496,06	2754,00
496,52	2735,00
496,98	2735,00
497,44	2800,00
497,91	2765,00
498,37	2731,00
498,83	2742,00
499,29	2732,00
499,75	2783,00
500,21	2750,00
500,67	2711,00
501,14	2726,00
501,60	2705,00
502,06	2724,00
502,52	2716,00
502,98	2726,00
503,44	2734,00
503,90	2720,00
504,37	2713,00
504,83	2756,00
505,29	2739,00
505,75	2711,00
506,21	2709,00
506,67	2738,00
507,13	2684,00
507,59	2752,00
508,05	2727,00
508,51	2717,00
508,98	2687,00
509,44	2698,00
509,90	2721,00
510,36	2729,00
510,82	2702,00
511,28	2743,00
511,74	2750,00
512,20	2712,00
512,66	2660,00
513,12	2714,00
513,58	2734,00
514,04	2672,00
514,51	2759,00
514,97	2744,00
515,43	2670,00
515,89	2712,00
516,35	2744,00
516,81	2711,00
517,27	2803,00
517,73	2713,00
518,19	2681,00
518,65	2806,00
519,11	2697,00
519,57	2685,00
520,03	2681,00
520,49	2679,00
520,95	2709,00
521,41	2716,00
521,87	2715,00
522,33	2711,00
522,79	2677,00
523,25	2757,00
523,71	2727,00
524,17	2710,00
524,63	2751,00
525,09	2711,00
525,55	2738,00
526,01	2735,00
526,47	2707,00
526,93	2716,00
527,39	2673,00
527,85	2697,00
528,31	2722,00
528,77	2732,00
529,23	2707,00
529,69	2666,00
530,15	2699,00
530,61	2722,00
531,07	2665,00
531,53	2746,00
531,99	2718,00
532,45	2703,00
532,91	2699,00
533,37	2702,00
533,83	2713,00
534,29	2685,00
534,75	2704,00
535,21	2707,00
535,67	2706,00
536,12	2682,00
536,58	2725,00
537,04	2679,00
537,50	2725,00
537,96	2680,00
538,42	2713,00
538,88	2772,00
539,34	2704,00
539,80	2872,00
540,26	2644,00
540,72	2763,00
541,18	2708,00
541,63	2670,00
542,09	2728,00
542,55	2704,00
543,01	2709,00
543,47	2805,00
543,93	2671,00
544,39	2762,00
544,85	2737,00
545,31	2704,00
545,76	2706,00
546,22	2739,00
546,68	2734,00
547,14	2690,00
547,60	2724,00
548,06	2737,00
548,52	2711,00
548,98	2701,00
549,43	2680,00
549,89	2797,00
550,35	2694,00
550,81	2691,00
551,27	2713,00
551,73	2698,00
552,19	2741,00
552,64	2703,00
553,10	2671,00
553,56	2710,00
554,02	2688,00
554,48	2677,00
554,93	2722,00
555,39	2721,00
555,85	2746,00
556,31	2710,00
556,77	2739,00
557,23	2671,00
557,68	2694,00
558,14	2774,00
558,60	2673,00
559,06	2699,00
559,52	2685,00
559,97	2681,00
560,43	2659,00
560,89	2716,00
561,35	2704,00
561,81	2685,00
562,26	2692,00
562,72	2651,00
563,18	2698,00
563,64	2728,00
564,09	2676,00
564,55	2729,00
565,01	2690,00
565,47	2699,00
565,92	2687,00
566,38	2725,00
566,84	2697,00
567,30	2683,00
567,75	2690,00
568,21	2742,00
568,67	2673,00
569,13	2693,00
569,58	2758,00
570,04	2705,00
570,50	2684,00
570,96	2724,00
571,41	2722,00
571,87	2724,00
572,33	2718,00
572,78	2712,00
573,24	2656,00
573,70	2699,00
574,16	2711,00
574,61	2723,00
575,07	2727,00
575,53	2670,00
575,98	2724,00
576,44	2637,00
576,90	2741,00
577,36	2684,00
577,81	2677,00
578,27	2674,00
578,73	2744,00
579,18	2718,00
579,64	2686,00
580,10	2714,00
580,55	2706,00
581,01	2690,00
581,47	2694,00
581,92	2719,00
582,38	2690,00
582,84	2659,00
583,29	2710,00
583,75	2724,00
584,21	2705,00
584,66	2720,00
585,12	2665,00
585,57	2798,00
586,03	2690,00
586,49	2688,00
586,94	2675,00
587,40	2705,00
587,86	2720,00
588,31	2669,00
588,77	2692,00
589,22	2691,00
589,68	2688,00
590,14	2720,00
590,59	2711,00
591,05	2679,00
591,51	2676,00
591,96	2744,00
592,42	2693,00
592,87	2717,00
593,33	2688,00
593,78	2741,00
594,24	2687,00
594,70	2692,00
595,15	2738,00
595,61	2669,00
596,06	2680,00
596,52	2745,00
596,98	2738,00
597,43	2732,00
597,89	2687,00
598,34	2665,00
598,80	2713,00
599,25	2737,00
599,71	2703,00
600,16	2716,00
600,62	2751,00
601,08	2716,00
601,53	2725,00
601,99	2697,00
602,44	2789,00
602,90	2705,00
603,35	2689,00
603,81	2675,00
604,26	2667,00
604,72	2706,00
605,17	2700,00
605,63	2703,00
606,08	2686,00
606,54	2668,00
606,99	2716,00
607,45	2696,00
607,90	2702,00
608,36	2739,00
608,81	2698,00
609,27	2782,00
609,72	2705,00
610,18	2689,00
610,63	2681,00
611,09	2707,00
611,54	2649,00
612,00	2762,00
612,45	2700,00
612,91	2687,00
613,36	2798,00
613,82	2678,00
614,27	2685,00
614,73	2653,00
615,18	2665,00
615,64	2688,00
616,09	2716,00
616,54	2703,00
617,00	2673,00
617,45	2668,00
617,91	2727,00
618,36	2671,00
618,82	2681,00
619,27	2682,00
619,72	2732,00
620,18	2695,00
620,63	2710,00
621,09	2757,00
621,54	2716,00
622,00	2725,00
622,45	2734,00
622,90	2725,00
623,36	2708,00
623,81	2679,00
624,27	2743,00
624,72	2695,00
625,17	2693,00
625,63	2718,00
626,08	2683,00
626,54	2706,00
626,99	2696,00
627,44	2692,00
627,90	2736,00
628,35	2735,00
628,81	2665,00
629,26	2701,00
629,71	2723,00
630,17	2702,00
630,62	2698,00
631,07	2720,00
631,53	2702,00
631,98	2689,00
632,43	2733,00
632,89	2677,00
633,34	2700,00
633,79	2700,00
634,25	2690,00
634,70	2687,00
635,15	2692,00
635,61	2686,00
636,06	2675,00
636,51	2686,00
636,97	2728,00
637,42	2672,00
637,87	2710,00
638,33	2705,00
638,78	2685,00
639,23	2693,00
639,69	2648,00
640,14	2670,00
640,59	2700,00
641,05	2741,00
641,50	2646,00
641,95	2689,00
642,40	2700,00
642,86	2648,00
643,31	2682,00
643,76	2712,00
644,22	2683,00
644,67	2689,00
645,12	2705,00
645,57	2681,00
646,03	2697,00
646,48	2685,00
646,93	2710,00
647,38	2721,00
647,84	2691,00
648,29	2703,00
648,74	2648,00
649,19	2738,00
649,65	2702,00
650,10	2858,00
650,55	2657,00
651,00	2682,00
651,46	2679,00
651,91	2725,00
652,36	2672,00
652,81	2707,00
653,27	2672,00
653,72	2675,00
654,17	2704,00
654,62	2718,00
655,07	2687,00
655,53	2662,00
655,98	2730,00
656,43	2672,00
656,88	2699,00
657,33	2724,00
657,79	2729,00
658,24	2698,00
658,69	2709,00
659,14	2668,00
659,59	2826,00
660,05	2686,00
660,50	2732,00
660,95	2690,00
661,40	2644,00
661,85	2691,00
662,30	2672,00
662,76	2667,00
663,21	2722,00
663,66	2678,00
664,11	2663,00
664,56	2690,00
665,01	2661,00
665,47	2697,00
665,92	2646,00
666,37	2700,00
666,82	2726,00
667,27	2799,00
667,72	2717,00
668,17	2653,00
668,62	2702,00
669,08	2697,00
669,53	2772,00
669,98	2646,00
670,43	2674,00
670,88	2712,00
671,33	2663,00
671,78	2765,00
672,23	2751,00
672,69	2703,00
673,14	2703,00
673,59	2733,00
674,04	2789,00
674,49	2688,00
674,94	2682,00
675,39	2658,00
675,84	2672,00
676,29	2710,00
676,74	2694,00
677,19	2698,00
677,64	2704,00
678,10	2785,00
678,55	2671,00
679,00	2701,00
679,45	2709,00
679,90	2665,00
680,35	2717,00
680,80	2709,00
681,25	2645,00
681,70	2649,00
682,15	2698,00
682,60	2699,00
683,05	2702,00
683,50	2732,00
683,95	2700,00
684,40	2725,00
684,85	2719,00
685,30	2690,00
685,75	2700,00
686,20	2712,00
686,65	2675,00
687,10	2674,00
687,55	2672,00
688,00	2721,00
688,45	2701,00
688,90	2784,00
689,35	2756,00
689,80	2670,00
690,25	2692,00
690,70	2696,00
691,15	2659,00
691,60	2696,00
692,05	2676,00
692,50	2701,00
692,95	2687,00
693,40	2717,00
693,85	2712,00
694,30	2701,00
694,75	2681,00
695,20	2832,00
695,65	2690,00
696,10	2685,00
696,55	2767,00
697,00	2695,00
697,45	2687,00
697,90	2689,00
698,35	2684,00
698,80	2724,00
699,24	2737,00
699,69	2668,00
700,14	2665,00
700,59	2724,00
701,04	2718,00
701,49	2818,00
701,94	2662,00
702,39	2730,00
702,84	2682,00
703,29	2680,00
703,74	2701,00
704,19	2679,00
704,63	2678,00
705,08	2734,00
705,53	2701,00
705,98	2748,00
706,43	2667,00
706,88	2739,00
707,33	2693,00
707,78	2682,00
708,22	2705,00
708,67	2701,00
709,12	2704,00
709,57	2687,00
710,02	2698,00
710,47	2704,00
710,92	2660,00
711,37	2698,00
711,81	2685,00
712,26	2723,00
712,71	2677,00
713,16	2758,00
713,61	2736,00
714,06	2715,00
714,50	2778,00
714,95	2700,00
715,40	2693,00
715,85	2717,00
716,30	2700,00
716,75	2679,00
717,19	2683,00
717,64	2661,00
718,09	2719,00
718,54	2744,00
718,99	2688,00
719,43	2652,00
719,88	2702,00
720,33	2686,00
720,78	2714,00
721,23	2699,00
721,67	2672,00
722,12	2706,00
722,57	2722,00
723,02	2660,00
723,47	2640,00
723,91	2677,00
724,36	2660,00
724,81	2702,00
725,26	2684,00
725,70	2673,00
726,15	2697,00
726,60	2704,00
727,05	2760,00
727,49	2691,00
727,94	2725,00
728,39	2737,00
728,84	2686,00
729,28	2710,00
729,73	2673,00
730,18	2703,00
730,63	2686,00
731,07	2678,00
731,52	2709,00
731,97	2723,00
732,41	2702,00
732,86	2684,00
733,31	2721,00
733,76	2712,00
734,20	2660,00
734,65	2734,00
735,10	2740,00
735,54	2682,00
735,99	2774,00
736,44	2693,00
736,89	2700,00
737,33	2721,00
737,78	2715,00
738,23	2688,00
738,67	2670,00
739,12	2713,00
739,57	2692,00
740,01	2727,00
740,46	2705,00
740,91	2687,00
741,35	2701,00
741,80	2706,00
742,25	2684,00
742,69	2708,00
743,14	2657,00
743,59	2693,00
744,03	2679,00
744,48	2719,00
744,92	2702,00
745,37	2682,00
745,82	2725,00
746,26	2741,00
746,71	2647,00
747,16	2656,00
747,60	2664,00
748,05	2701,00
748,49	2706,00
748,94	2688,00
749,39	2708,00
749,83	2785,00
750,28	2694,00
750,73	2704,00
751,17	2656,00
751,62	2700,00
752,06	2680,00
752,51	2682,00
752,95	2764,00
753,40	2696,00
753,85	2708,00
754,29	2643,00
754,74	2681,00
755,18	2692,00
755,63	2703,00
756,07	2718,00
756,52	2738,00
756,97	2717,00
757,41	2747,00
757,86	2721,00
758,30	2693,00
758,75	2681,00
759,19	2689,00
759,64	2680,00
760,08	2712,00
760,53	2703,00
760,98	2709,00
761,42	2727,00
761,87	2724,00
762,31	2683,00
762,76	2656,00
763,20	2662,00
763,65	2703,00
764,09	2693,00
764,54	2670,00
764,98	2686,00
765,43	2685,00
765,87	2667,00
766,32	2673,00
766,76	2674,00
767,21	2677,00
767,65	2701,00
768,10	2723,00
768,54	2724,00
768,99	2701,00
769,43	2783,00
769,88	2672,00
770,32	2714,00
770,77	2674,00
771,21	2642,00
771,65	2735,00
772,10	2713,00
772,54	2694,00
772,99	2661,00
773,43	2679,00
773,88	2673,00
774,32	2645,00
774,77	2698,00
775,21	2666,00
775,65	2702,00
776,10	2692,00
776,54	2681,00
776,99	2703,00
777,43	2684,00
777,88	2721,00
778,32	2702,00
778,76	2689,00
779,21	2701,00
779,65	2782,00
780,10	2730,00
780,54	2705,00
780,99	2727,00
781,43	2716,00
781,87	2666,00
782,32	2712,00
782,76	2665,00
783,20	2672,00
783,65	2728,00
784,09	2736,00
784,54	2680,00
784,98	2678,00
785,42	2705,00
785,87	2673,00
786,31	2728,00
786,75	2725,00
787,20	2733,00
787,64	2663,00
788,09	2677,00
788,53	2708,00
788,97	2708,00
789,42	2669,00
789,86	2665,00
790,30	2694,00
790,75	2672,00
791,19	2685,00
791,63	2757,00
792,08	2691,00
792,52	2692,00
792,96	2685,00
793,41	2866,00
793,85	2736,00
794,29	2710,00
794,74	2699,00
795,18	2691,00
795,62	2686,00
796,06	2700,00
796,51	2702,00
796,95	2689,00
797,39	2689,00
797,84	2637,00
798,28	2691,00
798,72	2751,00
799,16	2699,00
799,61	2703,00
800,05	2731,00
800,49	2728,00
800,94	2685,00
801,38	2722,00
801,82	2720,00
802,26	2693,00
802,71	2720,00
803,15	2763,00
803,59	2723,00
804,03	2695,00
804,48	2690,00
804,92	2672,00
805,36	2751,00
805,80	2771,00
806,25	2755,00
806,69	2749,00
807,13	2774,00
807,57	2710,00
808,01	2709,00
808,46	2677,00
808,90	2713,00
809,34	2686,00
809,78	2690,00
810,23	2676,00
810,67	2739,00
811,11	2752,00
811,55	2826,00
811,99	2688,00
812,44	2704,00
812,88	2741,00
813,32	2750,00
813,76	2731,00
814,20	2714,00
814,64	2721,00
815,09	2708,00
815,53	2735,00
815,97	2693,00
816,41	2679,00
816,85	2672,00
817,29	2716,00
817,74	2701,00
818,18	2735,00
818,62	2706,00
819,06	2732,00
819,50	2742,00
819,94	2708,00
820,39	2692,00
820,83	2683,00
821,27	2704,00
821,71	2668,00
822,15	2751,00
822,59	2699,00
823,03	2702,00
823,47	2725,00
823,92	2674,00
824,36	2706,00
824,80	2712,00
825,24	2717,00
825,68	2716,00
826,12	2700,00
826,56	2702,00
827,00	2682,00
827,44	2700,00
827,88	2704,00
828,33	2717,00
828,77	2686,00
829,21	2721,00
829,65	2706,00
830,09	2689,00
830,53	2758,00
830,97	2698,00
831,41	2806,00
831,85	2746,00
832,29	2723,00
832,73	2661,00
833,17	2710,00
833,61	2720,00
834,05	2737,00
834,49	2735,00
834,93	2678,00
835,37	2704,00
835,82	2734,00
836,26	2681,00
836,70	2713,00
837,14	2684,00
837,58	2773,00
838,02	2685,00
838,46	2702,00
838,90	2724,00
839,34	2703,00
839,78	2738,00
840,22	2809,00
840,66	2728,00
841,10	2743,00
841,54	2680,00
841,98	2692,00
842,42	2672,00
842,86	2710,00
843,30	2722,00
843,74	2718,00
844,18	2716,00
844,62	2710,00
845,06	2698,00
845,50	2723,00
845,94	2691,00
846,37	2742,00
846,81	2693,00
847,25	2674,00
847,69	2719,00
848,13	2712,00
848,57	2715,00
849,01	2676,00
849,45	2736,00
849,89	2762,00
850,33	2724,00
850,77	2708,00
851,21	2726,00
851,65	2676,00
852,09	2715,00
852,53	2722,00
852,97	2689,00
853,40	2692,00
853,84	2714,00
854,28	2684,00
854,72	2724,00
855,16	2661,00
855,60	2650,00
856,04	2752,00
856,48	2757,00
856,92	2692,00
857,36	2692,00
857,79	2691,00
858,23	2662,00
858,67	2749,00
859,11	2668,00
859,55	2681,00
859,99	2717,00
860,43	2700,00
860,87	2705,00
861,30	2738,00
861,74	2689,00
862,18	2684,00
862,62	2731,00
863,06	2673,00
863,50	2707,00
863,94	2704,00
864,37	2667,00
864,81	2711,00
865,25	2699,00
865,69	2671,00
866,13	2676,00
866,57	2669,00
867,00	2730,00
867,44	2672,00
867,88	2705,00
868,32	2699,00
868,76	2694,00
869,19	2717,00
869,63	2705,00
870,07	2768,00
870,51	2824,00
870,95	2686,00
871,38	2684,00
871,82	2692,00
872,26	2687,00
872,70	2714,00
873,14	2702,00
873,57	2704,00
874,01	2731,00
874,45	2724,00
874,89	2690,00
875,32	2696,00
875,76	2745,00
876,20	2669,00
876,64	2719,00
877,07	2686,00
877,51	2717,00
877,95	2707,00
878,39	2704,00
878,82	2700,00
879,26	2693,00
879,70	2763,00
880,14	2688,00
880,57	2679,00
881,01	2688,00
881,45	2710,00
881,89	2715,00
882,32	2718,00
882,76	2674,00
883,20	2700,00
883,63	2701,00
884,07	2678,00
884,51	2724,00
884,94	2687,00
885,38	2708,00
885,82	2722,00
886,26	2669,00
886,69	2691,00
887,13	2771,00
887,57	2666,00
888,00	2660,00
888,44	2703,00
888,88	2675,00
889,31	2820,00
889,75	2677,00
890,19	2730,00
890,62	2686,00
891,06	2695,00
891,50	2716,00
891,93	2656,00
892,37	2719,00
892,81	2690,00
893,24	2664,00
893,68	2682,00
894,11	2731,00
894,55	2684,00
894,99	2723,00
895,42	2702,00
895,86	2697,00
896,30	2688,00
896,73	2715,00
897,17	2668,00
897,60	2684,00
898,04	2655,00
898,48	2720,00
898,91	2751,00
899,35	2675,00
899,78	2677,00
900,22	2701,00
900,66	2711,00
901,09	2720,00
901,53	2669,00
901,96	2776,00
902,40	2760,00
902,84	2664,00
903,27	2676,00
903,71	2777,00
904,14	2676,00
904,58	2725,00
905,01	2676,00
905,45	2685,00
905,88	2684,00
906,32	2729,00
906,76	2694,00
907,19	2728,00
907,63	2695,00
908,06	2700,00
908,50	2721,00
908,93	2752,00
909,37	2680,00
909,80	2688,00
910,24	2706,00
910,67	2680,00
911,11	2668,00
911,54	2701,00
911,98	2713,00
912,41	2704,00
912,85	2697,00
913,28	2716,00
913,72	2725,00
914,15	2708,00
914,59	2692,00
915,02	2686,00
915,46	2686,00
915,89	2672,00
916,33	2702,00
916,76	2696,00
917,20	2736,00
917,63	2681,00
918,07	2705,00
918,50	2674,00
918,94	2718,00
919,37	2692,00
919,81	2724,00
920,24	2720,00
920,67	2690,00
921,11	2734,00
921,54	2744,00
921,98	2712,00
922,41	2668,00
922,85	2673,00
923,28	2728,00
923,72	2770,00
924,15	2725,00
924,58	2672,00
925,02	2715,00
925,45	2675,00
925,89	2724,00
926,32	2782,00
926,75	2706,00
927,19	2726,00
927,62	2661,00
928,06	2751,00
928,49	2709,00
928,92	2668,00
929,36	2731,00
929,79	2704,00
930,23	2708,00
930,66	2676,00
931,09	2690,00
931,53	2713,00
931,96	2673,00
932,39	2752,00
932,83	2748,00
933,26	2794,00
933,70	2686,00
934,13	2736,00
934,56	2733,00
935,00	2723,00
935,43	2721,00
935,86	2681,00
936,30	2698,00
936,73	2692,00
937,16	2713,00
937,60	2692,00
938,03	2717,00
938,46	2673,00
938,90	2702,00
939,33	2733,00
939,76	2659,00
940,19	2716,00
940,63	2735,00
941,06	2780,00
941,49	2691,00
941,93	2721,00
942,36	2690,00
942,79	2720,00
943,23	2717,00
943,66	2677,00
944,09	2644,00
944,52	2736,00
944,96	2697,00
945,39	2706,00
945,82	2700,00
946,26	2690,00
946,69	2710,00
947,12	2760,00
947,55	2695,00
947,99	2692,00
948,42	2710,00
948,85	2677,00
949,28	2680,00
949,72	2677,00
950,15	2773,00
950,58	2739,00
951,01	2667,00
951,45	2707,00
951,88	2703,00
952,31	2658,00
952,74	2707,00
953,17	2717,00
953,61	2747,00
954,04	2664,00
954,47	2684,00
954,90	2688,00
955,33	2684,00
955,77	2695,00
956,20	2717,00
956,63	2699,00
957,06	2715,00
957,49	2796,00
957,93	2662,00
958,36	2730,00
958,79	2698,00
959,22	2684,00
959,65	2715,00
960,08	2680,00
960,52	2654,00
960,95	2692,00
961,38	2721,00
961,81	2730,00
962,24	2726,00
962,67	2739,00
963,11	2688,00
963,54	2704,00
963,97	2717,00
964,40	2700,00
964,83	2685,00
965,26	2713,00
965,69	2718,00
966,13	2686,00
966,56	2684,00
966,99	2723,00
967,42	2691,00
967,85	2696,00
968,28	2737,00
968,71	2839,00
969,14	2719,00
969,57	2708,00
970,01	2723,00
970,44	2686,00
970,87	2692,00
971,30	2732,00
971,73	2686,00
972,16	2684,00
972,59	2662,00
973,02	2651,00
973,45	2680,00
973,88	2706,00
974,31	2707,00
974,74	2719,00
975,17	2713,00
975,61	2690,00
976,04	2695,00
976,47	2686,00
976,90	2706,00
977,33	2669,00
977,76	2702,00
978,19	2703,00
978,62	2685,00
979,05	2682,00
979,48	2688,00
979,91	2728,00
980,34	2724,00
980,77	2697,00
981,20	2704,00
981,63	2748,00
982,06	2699,00
982,49	2716,00
982,92	2705,00
983,35	2702,00
983,78	2687,00
984,21	2736,00
984,64	2719,00
985,07	2695,00
985,50	2656,00
985,93	2688,00
986,36	2722,00
986,79	2709,00
987,22	2679,00
987,65	2697,00
988,08	2700,00
988,51	2714,00
988,94	2718,00
989,37	2680,00
989,80	2691,00
990,23	2701,00
990,66	2694,00
991,09	2716,00
991,51	2702,00
991,94	2761,00
992,37	2667,00
992,80	2674,00
993,23	2687,00
993,66	2680,00
994,09	2701,00
994,52	2719,00
994,95	2735,00
995,38	2699,00
995,81	2702,00
996,24	2673,00
996,67	2695,00
997,09	2672,00
997,52	2714,00
997,95	2712,00
998,38	2688,00
998,81	2707,00
999,24	2692,00
999,67	2756,00
1000,10	2724,00
1000,53	2721,00
1000,95	2754,00
1001,38	2704,00
1001,81	2727,00
1002,24	2737,00
1002,67	2693,00
1003,10	2719,00
1003,53	2689,00
1003,95	2738,00
1004,38	2694,00
1004,81	2723,00
1005,24	2707,00
1005,67	2741,00
1006,10	2707,00
1006,52	2671,00
1006,95	2715,00
1007,38	2696,00
1007,81	2681,00
1008,24	2670,00
1008,67	2675,00
1009,09	2692,00
1009,52	2784,00
1009,95	2736,00
1010,38	2748,00
1010,81	2702,00
1011,23	2721,00
1011,66	2740,00
1012,09	2690,00
1012,52	2697,00
1012,95	2711,00
1013,37	2723,00
1013,80	2717,00
1014,23	2704,00
1014,66	2740,00
1015,08	2680,00
1015,51	2731,00
1015,94	2677,00
1016,37	2735,00
1016,80	2694,00
1017,22	2734,00
1017,65	2689,00
1018,08	2687,00
1018,51	2680,00
1018,93	2661,00
1019,36	2809,00
1019,79	2728,00
1020,21	2725,00
1020,64	2685,00
1021,07	2693,00
1021,50	2688,00
1021,92	2724,00
1022,35	2727,00
1022,78	2703,00
1023,21	2816,00
1023,63	2747,00
1024,06	2727,00
1024,49	2722,00
1024,91	2699,00
1025,34	2727,00
1025,77	2728,00
1026,19	2693,00
1026,62	2675,00
1027,05	2781,00
1027,47	2736,00
1027,90	2726,00
1028,33	2707,00
1028,75	2734,00
1029,18	2668,00
1029,61	2773,00
1030,03	2686,00
1030,46	2704,00
1030,89	2722,00
1031,31	2744,00
1031,74	2663,00
1032,17	2705,00
1032,59	2704,00
1033,02	2723,00
1033,45	2724,00
1033,87	2676,00
1034,30	2684,00
1034,73	2692,00
1035,15	2737,00
1035,58	2691,00
1036,00	2742,00
1036,43	2685,00
1036,86	2668,00
1037,28	2714,00
1037,71	2649,00
1038,13	2715,00
1038,56	2740,00
1038,99	2725,00
1039,41	2732,00
1039,84	2750,00
1040,26	2704,00
1040,69	2679,00
1041,11	2703,00
1041,54	2728,00
1041,97	2744,00
1042,39	2737,00
1042,82	2723,00
1043,24	2726,00
1043,67	2692,00
1044,09	2730,00
1044,52	2700,00
1044,95	2690,00
1045,37	2682,00
1045,80	2677,00
1046,22	2706,00
1046,65	2723,00
1047,07	2687,00
1047,50	2719,00
1047,92	2729,00
1048,35	2680,00
1048,77	2723,00
1049,20	2734,00
1049,62	2716,00
1050,05	2700,00
1050,47	2674,00
1050,90	2693,00
1051,32	2731,00
1051,75	2750,00
1052,17	2714,00
1052,60	2693,00
1053,02	2723,00
1053,45	2629,00
1053,87	2710,00
1054,30	2674,00
1054,72	2698,00
1055,15	2686,00
1055,57	2710,00
1056,00	2731,00
1056,42	2775,00
1056,85	2738,00
1057,27	2752,00
1057,70	2722,00
1058,12	2831,00
1058,54	2673,00
1058,97	2729,00
1059,39	2734,00
1059,82	2702,00
1060,24	2716,00
1060,67	2736,00
1061,09	2730,00
1061,51	2701,00
1061,94	2693,00
1062,36	2717,00
1062,79	2740,00
1063,21	2722,00
1063,64	2686,00
1064,06	2700,00
1064,48	2732,00
1064,91	2729,00
1065,33	2705,00
1065,76	2697,00
1066,18	2658,00
1066,60	2689,00
1067,03	2723,00
1067,45	2684,00
1067,87	2713,00
1068,30	2693,00
1068,72	2773,00
1069,15	2704,00
1069,57	2668,00
1069,99	2666,00
1070,42	2759,00
1070,84	2725,00
1071,26	2737,00
1071,69	2717,00
1072,11	2742,00
1072,53	2696,00
1072,96	2689,00
1073,38	2701,00
1073,80	2725,00
1074,23	2689,00
1074,65	2694,00
1075,07	2686,00
1075,50	2673,00
1075,92	2709,00
1076,34	2688,00
1076,77	2676,00
1077,19	2692,00
1077,61	2712,00
1078,04	2700,00
1078,46	2726,00
1078,88	2736,00
1079,30	2652,00
1079,73	2735,00
1080,15	2687,00
1080,57	2708,00
1081,00	2704,00
1081,42	2701,00
1081,84	2708,00
1082,26	2723,00
1082,69	2708,00
1083,11	2714,00
1083,53	2706,00
1083,95	2697,00
1084,38	2723,00
1084,80	2734,00
1085,22	2676,00
1085,64	2761,00
1086,07	2685,00
1086,49	2675,00
1086,91	2720,00
1087,33	2659,00
1087,76	2732,00
1088,18	3966,00
1088,60	2687,00
1089,02	2676,00
1089,45	2702,00
1089,87	2708,00
1090,29	2754,00
1090,71	2700,00
1091,13	2702,00
1091,56	2696,00
1091,98	2711,00
1092,40	2677,00
1092,82	2710,00
1093,24	2709,00
1093,66	2719,00
1094,09	2689,00
1094,51	2700,00
1094,93	2696,00
1095,35	2704,00
1095,77	2672,00
1096,19	2705,00
1096,62	2726,00
1097,04	2665,00
1097,46	2688,00
1097,88	2676,00
1098,30	2714,00
1098,72	2738,00
1099,15	2702,00
1099,57	2695,00
1099,99	2705,00
1100,41	2694,00
1100,83	2676,00
1101,25	2685,00
1101,67	2721,00
1102,09	2697,00
1102,52	2692,00
1102,94	2696,00
1103,36	2698,00
1103,78	2696,00
1104,20	2672,00
1104,62	2729,00
1105,04	2649,00
1105,46	2713,00
1105,88	2696,00
1106,30	2666,00
1106,73	2716,00
1107,15	2647,00
1107,57	2661,00
1107,99	2738,00
1108,41	2623,00
1108,83	2695,00
1109,25	2686,00
1109,67	2709,00
1110,09	2663,00
1110,51	2676,00
1110,93	2650,00
1111,35	2692,00
1111,77	2645,00
1112,19	2653,00
1112,61	2661,00
1113,03	2657,00
1113,45	2637,00
1113,87	2672,00
1114,29	2683,00
1114,71	2696,00
1115,13	2646,00
1115,55	2669,00
1115,98	2677,00
1116,40	2691,00
1116,82	2680,00
1117,24	2657,00
1117,66	2643,00
1118,08	2174,00
1118,50	2191,00
1118,91	2188,00
1119,33	2191,00
>>>>>End Processed Spectral Data<<<<<
