SpectraSuite Data File
++++++++++++++++++++++++++++++++++++
Date: Fri May 31 11:20:56 EEST 2013
User: OO Maya
Dark Spectrum Present: No
Reference Spectrum Present: No
Number of Sampled Component Spectra: 1
Spectrometers: MAYP11278
Integration Time (usec): 250000 (MAYP11278)
Spectra Averaged: 1 (MAYP11278)
Boxcar Smoothing: 0 (MAYP11278)
Correct for Electrical Dark: No (MAYP11278)
Strobe/Lamp Enabled: No (MAYP11278)
Correct for Detector Non-linearity: No (MAYP11278)
Correct for Stray Light: No (MAYP11278)
Number of Pixels in Processed Spectrum: 2068
>>>>>Begin Processed Spectral Data<<<<<
188,05	2304,00
188,53	2226,00
189,01	2193,00
189,49	2193,00
189,96	2822,00
190,44	2982,00
190,92	3101,00
191,40	3152,00
191,88	3208,00
192,36	3149,00
192,83	3165,00
193,31	3150,00
193,79	3171,00
194,27	3199,00
194,75	3208,00
195,23	3152,00
195,70	3177,00
196,18	3148,00
196,66	3152,00
197,14	3224,00
197,62	3158,00
198,09	3154,00
198,57	3151,00
199,05	3146,00
199,53	3189,00
200,01	3186,00
200,48	3174,00
200,96	3173,00
201,44	3172,00
201,92	3190,00
202,39	3188,00
202,87	3157,00
203,35	3202,00
203,83	3144,00
204,31	3213,00
204,78	3231,00
205,26	3148,00
205,74	3178,00
206,22	3220,00
206,69	3229,00
207,17	3190,00
207,65	3258,00
208,13	3201,00
208,60	3181,00
209,08	3203,00
209,56	3223,00
210,04	3196,00
210,51	3194,00
210,99	3190,00
211,47	3206,00
211,94	3211,00
212,42	3199,00
212,90	3283,00
213,38	3199,00
213,85	3172,00
214,33	3280,00
214,81	3212,00
215,29	3260,00
215,76	3229,00
216,24	3233,00
216,72	3202,00
217,19	3236,00
217,67	3182,00
218,15	3187,00
218,62	3260,00
219,10	3187,00
219,58	3191,00
220,05	3193,00
220,53	3239,00
221,01	3242,00
221,49	3209,00
221,96	3273,00
222,44	3191,00
222,92	3193,00
223,39	3225,00
223,87	3214,00
224,35	3220,00
224,82	3203,00
225,30	3184,00
225,78	3220,00
226,25	3201,00
226,73	3166,00
227,21	3264,00
227,68	3214,00
228,16	3223,00
228,63	3278,00
229,11	3223,00
229,59	3239,00
230,06	3230,00
230,54	3216,00
231,02	3224,00
231,49	3285,00
231,97	3219,00
232,45	3207,00
232,92	3188,00
233,40	3245,00
233,87	3298,00
234,35	3367,00
234,83	3238,00
235,30	3248,00
235,78	3246,00
236,25	3214,00
236,73	3263,00
237,21	3290,00
237,68	3215,00
238,16	3256,00
238,63	3274,00
239,11	3248,00
239,59	3232,00
240,06	3227,00
240,54	3273,00
241,01	3291,00
241,49	3275,00
241,96	3285,00
242,44	3329,00
242,92	3337,00
243,39	3219,00
243,87	3257,00
244,34	3286,00
244,82	3326,00
245,29	3233,00
245,77	3288,00
246,24	3340,00
246,72	3285,00
247,20	3268,00
247,67	3259,00
248,15	3292,00
248,62	3322,00
249,10	3245,00
249,57	3297,00
250,05	3331,00
250,52	3276,00
251,00	3338,00
251,47	3295,00
251,95	3333,00
252,42	3375,00
252,90	3273,00
253,37	3297,00
253,85	3283,00
254,32	3320,00
254,80	3313,00
255,27	3307,00
255,75	3317,00
256,22	3292,00
256,70	3316,00
257,17	3282,00
257,65	3334,00
258,12	3406,00
258,60	3302,00
259,07	3278,00
259,55	3264,00
260,02	3275,00
260,50	3309,00
260,97	3254,00
261,45	3294,00
261,92	3327,00
262,40	3279,00
262,87	3289,00
263,35	3265,00
263,82	3221,00
264,30	3314,00
264,77	3333,00
265,25	3276,00
265,72	3294,00
266,19	3340,00
266,67	3322,00
267,14	3317,00
267,62	3324,00
268,09	3299,00
268,57	3308,00
269,04	3236,00
269,51	3212,00
269,99	3240,00
270,46	3243,00
270,94	3258,00
271,41	3259,00
271,89	3289,00
272,36	3273,00
272,83	3287,00
273,31	3263,00
273,78	3308,00
274,26	3404,00
274,73	3282,00
275,20	3288,00
275,68	3244,00
276,15	3242,00
276,63	3253,00
277,10	3219,00
277,57	3131,00
278,05	3160,00
278,52	3124,00
279,00	3231,00
279,47	3098,00
279,94	3146,00
280,42	3455,00
280,89	3599,00
281,36	3713,00
281,84	3579,00
282,31	3485,00
282,78	3446,00
283,26	3400,00
283,73	3393,00
284,21	3316,00
284,68	3307,00
285,15	3341,00
285,63	3327,00
286,10	3365,00
286,57	3360,00
287,05	3280,00
287,52	3349,00
287,99	3355,00
288,47	3300,00
288,94	3358,00
289,41	3219,00
289,89	3357,00
290,36	3328,00
290,83	3321,00
291,30	3297,00
291,78	3343,00
292,25	3398,00
292,72	3321,00
293,20	3371,00
293,67	3343,00
294,14	3327,00
294,62	3336,00
295,09	3298,00
295,56	3380,00
296,03	3349,00
296,51	3404,00
296,98	3385,00
297,45	3383,00
297,93	3316,00
298,40	3362,00
298,87	3358,00
299,34	3428,00
299,82	3324,00
300,29	3365,00
300,76	3342,00
301,23	3426,00
301,71	3402,00
302,18	3427,00
302,65	3369,00
303,12	3487,00
303,60	3452,00
304,07	3444,00
304,54	3516,00
305,01	3528,00
305,49	3545,00
305,96	3577,00
306,43	3629,00
306,90	3715,00
307,38	3724,00
307,85	3778,00
308,32	3844,00
308,79	3811,00
309,27	3885,00
309,74	4009,00
310,21	4185,00
310,68	4314,00
311,15	4349,00
311,63	4367,00
312,10	4562,00
312,57	4565,00
313,04	4677,00
313,51	4775,00
313,99	4751,00
314,46	4870,00
314,93	4920,00
315,40	4874,00
315,87	5002,00
316,34	5313,00
316,82	5518,00
317,29	5517,00
317,76	5323,00
318,23	5716,00
318,70	5772,00
319,17	5742,00
319,65	5998,00
320,12	6284,00
320,59	6256,00
321,06	6083,00
321,53	6165,00
322,00	6133,00
322,48	5944,00
322,95	6217,00
323,42	6469,00
323,89	6637,00
324,36	6462,00
324,83	6828,00
325,30	7255,00
325,78	7518,00
326,25	7793,00
326,72	7808,00
327,19	7941,00
327,66	8010,00
328,13	8018,00
328,60	8460,00
329,07	8938,00
329,54	8797,00
330,02	8473,00
330,49	8126,00
330,96	7936,00
331,43	7857,00
331,90	7879,00
332,37	7805,00
332,84	8126,00
333,31	8173,00
333,78	8514,00
334,25	8809,00
334,72	8986,00
335,20	9398,00
335,67	9308,00
336,14	9029,00
336,61	8797,00
337,08	8777,00
337,55	9060,00
338,02	9075,00
338,49	9244,00
338,96	9317,00
339,43	9540,00
339,90	9575,00
340,37	9300,00
340,84	9216,00
341,31	9295,00
341,78	9651,00
342,25	9622,00
342,72	9654,00
343,19	9394,00
343,67	8692,00
344,14	8513,00
344,61	9202,00
345,08	9372,00
345,55	9224,00
346,02	9268,00
346,49	9546,00
346,96	9234,00
347,43	9241,00
347,90	9341,00
348,37	9402,00
348,84	9290,00
349,31	9410,00
349,78	10096,00
350,25	10287,00
350,72	9849,00
351,19	9820,00
351,66	9805,00
352,13	9498,00
352,60	9798,00
353,07	10288,00
353,54	10573,00
354,01	10674,00
354,48	10658,00
354,94	10277,00
355,41	10053,00
355,88	9882,00
356,35	9086,00
356,82	8936,00
357,29	9050,00
357,76	8680,00
358,23	8590,00
358,70	9390,00
359,17	10405,00
359,64	10646,00
360,11	10059,00
360,58	9655,00
361,05	9849,00
361,52	9888,00
361,99	10269,00
362,46	10822,00
362,93	10283,00
363,39	10623,00
363,86	11019,00
364,33	10723,00
364,80	11210,00
365,27	11955,00
365,74	12262,00
366,21	12021,00
366,68	11870,00
367,15	11972,00
367,62	12842,00
368,09	11527,00
368,55	11791,00
369,02	12347,00
369,49	12473,00
369,96	12283,00
370,43	11580,00
370,90	12129,00
371,37	12094,00
371,84	11187,00
372,31	11494,00
372,77	11071,00
373,24	10249,00
373,71	10945,00
374,18	10993,00
374,65	10987,00
375,12	12202,00
375,59	12282,00
376,05	12489,00
376,52	12811,00
376,99	13640,00
377,46	14112,00
377,93	14338,00
378,40	13642,00
378,86	13141,00
379,33	12691,00
379,80	13048,00
380,27	13728,00
380,74	13393,00
381,21	12266,00
381,67	11334,00
382,14	10660,00
382,61	10269,00
383,08	10526,00
383,55	11058,00
384,02	12233,00
384,48	13143,00
384,95	13258,00
385,42	12738,00
385,89	12859,00
386,36	13255,00
386,82	13103,00
387,29	13400,00
387,76	13397,00
388,23	13689,00
388,69	14436,00
389,16	15619,00
389,63	15958,00
390,10	16011,00
390,57	16480,00
391,03	16670,00
391,50	15482,00
391,97	14002,00
392,44	12381,00
392,90	10769,00
393,37	11709,00
393,84	14344,00
394,31	16052,00
394,77	16948,00
395,24	16491,00
395,71	15167,00
396,18	13554,00
396,64	12989,00
397,11	16044,00
397,58	19190,00
398,05	20877,00
398,51	21814,00
398,98	22575,00
399,45	22766,00
399,92	23216,00
400,38	23403,00
400,85	24030,00
401,32	24502,00
401,78	24439,00
402,25	24442,00
402,72	24066,00
403,18	23853,00
403,65	24812,00
404,12	23937,00
404,59	23917,00
405,05	24213,00
405,52	24142,00
405,99	23636,00
406,45	24027,00
406,92	24799,00
407,39	24876,00
407,85	25725,00
408,32	26086,00
408,79	26143,00
409,25	25302,00
409,72	24393,00
410,19	25170,00
410,65	26834,00
411,12	27548,00
411,59	27695,00
412,05	27661,00
412,52	27241,00
412,99	27200,00
413,45	27809,00
413,92	27786,00
414,39	27675,00
414,85	28093,00
415,32	27994,00
415,78	28658,00
416,25	28536,00
416,72	27935,00
417,18	27473,00
417,65	27803,00
418,12	27932,00
418,58	27860,00
419,05	28279,00
419,51	27952,00
419,98	28353,00
420,45	29562,00
420,91	29604,00
421,38	28919,00
421,84	28821,00
422,31	27792,00
422,78	28419,00
423,24	28762,00
423,71	29033,00
424,17	29334,00
424,64	28821,00
425,11	28980,00
425,57	28836,00
426,04	28967,00
426,50	28888,00
426,97	27857,00
427,43	28409,00
427,90	28558,00
428,37	27574,00
428,83	26584,00
429,30	25573,00
429,76	23801,00
430,23	23902,00
430,69	25877,00
431,16	28892,00
431,62	31419,00
432,09	30551,00
432,55	30530,00
433,02	30989,00
433,48	29995,00
433,95	29671,00
434,42	31854,00
434,88	32400,00
435,35	33076,00
435,81	33830,00
436,28	33790,00
436,74	33202,00
437,21	32052,00
437,67	31775,00
438,14	31030,00
438,60	32117,00
439,07	33136,00
439,53	33652,00
440,00	33566,00
440,46	34009,00
440,93	35558,00
441,39	35735,00
441,86	36456,00
442,32	36384,00
442,79	36374,00
443,25	36397,00
443,72	37160,00
444,18	36939,00
444,64	36776,00
445,11	35884,00
445,57	35765,00
446,04	36775,00
446,50	37888,00
446,97	38625,00
447,43	39012,00
447,90	38711,00
448,36	39236,00
448,83	39652,00
449,29	39760,00
449,75	41211,00
450,22	41874,00
450,68	41692,00
451,15	41163,00
451,61	40576,00
452,08	39610,00
452,54	38719,00
453,00	39408,00
453,47	40460,00
453,93	40872,00
454,40	40570,00
454,86	40853,00
455,32	41422,00
455,79	42239,00
456,25	42457,00
456,72	42407,00
457,18	42273,00
457,64	41740,00
458,11	41444,00
458,57	41763,00
459,04	41801,00
459,50	41929,00
459,96	42579,00
460,43	43126,00
460,89	43565,00
461,36	43559,00
461,82	43801,00
462,28	43963,00
462,75	43786,00
463,21	43513,00
463,67	42932,00
464,14	42876,00
464,60	42685,00
465,06	43277,00
465,53	43273,00
465,99	42685,00
466,45	42088,00
466,92	42624,00
467,38	43316,00
467,84	43257,00
468,31	43531,00
468,77	43680,00
469,23	42960,00
469,70	42628,00
470,16	42360,00
470,62	43284,00
471,09	44337,00
471,55	45075,00
472,01	45119,00
472,48	44376,00
472,94	44054,00
473,40	44630,00
473,87	45311,00
474,33	45543,00
474,79	44905,00
475,25	44606,00
475,72	44516,00
476,18	44496,00
476,64	45397,00
477,11	46180,00
477,57	46132,00
478,03	45929,00
478,49	45915,00
478,96	46404,00
479,42	46730,00
479,88	46584,00
480,35	46620,00
480,81	46955,00
481,27	47362,00
481,73	47266,00
482,20	46792,00
482,66	46858,00
483,12	46254,00
483,58	46148,00
484,05	45920,00
484,51	45095,00
484,97	42820,00
485,43	40308,00
485,89	39613,00
486,36	41501,00
486,82	43157,00
487,28	44537,00
487,74	45191,00
488,21	44752,00
488,67	45205,00
489,13	46684,00
489,59	47413,00
490,05	47248,00
490,52	46656,00
490,98	45766,00
491,44	45094,00
491,90	45148,00
492,36	46708,00
492,83	46930,00
493,29	46682,00
493,75	47411,00
494,21	48097,00
494,67	48090,00
495,14	47193,00
495,60	47184,00
496,06	48075,00
496,52	48236,00
496,98	48202,00
497,44	47038,00
497,91	46344,00
498,37	46817,00
498,83	47517,00
499,29	47062,00
499,75	46543,00
500,21	45932,00
500,67	45538,00
501,14	45545,00
501,60	45834,00
502,06	46712,00
502,52	47202,00
502,98	46731,00
503,44	45705,00
503,90	46310,00
504,37	47404,00
504,83	48196,00
505,29	48909,00
505,75	48843,00
506,21	48567,00
506,67	47832,00
507,13	47121,00
507,59	47094,00
508,05	47895,00
508,51	48713,00
508,98	48728,00
509,44	47920,00
509,90	48156,00
510,36	48487,00
510,82	49168,00
511,28	49501,00
511,74	48958,00
512,20	47937,00
512,66	47710,00
513,12	47516,00
513,58	47080,00
514,04	47248,00
514,51	47824,00
514,97	48104,00
515,43	47801,00
515,89	45563,00
516,35	42706,00
516,81	42960,00
517,27	44776,00
517,73	44895,00
518,19	44702,00
518,65	46593,00
519,11	47752,00
519,57	48482,00
520,03	48492,00
520,49	48504,00
520,95	49493,00
521,41	49604,00
521,87	49179,00
522,33	48349,00
522,79	48992,00
523,25	50442,00
523,71	51355,00
524,17	51285,00
524,63	51004,00
525,09	50829,00
525,55	49684,00
526,01	47145,00
526,47	46318,00
526,93	47947,00
527,39	49826,00
527,85	50860,00
528,31	51932,00
528,77	52490,00
529,23	51712,00
529,69	51620,00
530,15	52718,00
530,61	53317,00
531,07	52632,00
531,53	51994,00
531,99	50370,00
532,45	49726,00
532,91	50961,00
533,37	51679,00
533,83	51699,00
534,29	51848,00
534,75	52839,00
535,21	53391,00
535,67	53154,00
536,12	51840,00
536,58	51212,00
537,04	51970,00
537,50	52902,00
537,96	52820,00
538,42	52290,00
538,88	51619,00
539,34	51089,00
539,80	50720,00
540,26	50174,00
540,72	50816,00
541,18	51756,00
541,63	52040,00
542,09	51908,00
542,55	51729,00
543,01	51881,00
543,47	52775,00
543,93	52678,00
544,39	52568,00
544,85	52622,00
545,31	52612,00
545,76	52804,00
546,22	52600,00
546,68	52711,00
547,14	51812,00
547,60	51987,00
548,06	52613,00
548,52	53068,00
548,98	53316,00
549,43	53187,00
549,89	52972,00
550,35	52861,00
550,81	52898,00
551,27	53656,00
551,73	53626,00
552,19	52883,00
552,64	52777,00
553,10	53367,00
553,56	53801,00
554,02	53614,00
554,48	53903,00
554,93	53749,00
555,39	53647,00
555,85	53117,00
556,31	52584,00
556,77	52421,00
557,23	52779,00
557,68	52766,00
558,14	51895,00
558,60	51167,00
559,06	51742,00
559,52	51832,00
559,97	52494,00
560,43	53652,00
560,89	53214,00
561,35	52535,00
561,81	52719,00
562,26	53150,00
562,72	53237,00
563,18	53098,00
563,64	52881,00
564,09	53090,00
564,55	53244,00
565,01	52319,00
565,47	51773,00
565,92	51996,00
566,38	53031,00
566,84	53244,00
567,30	53247,00
567,75	52236,00
568,21	51812,00
568,67	52016,00
569,13	52465,00
569,58	52259,00
570,04	51435,00
570,50	50916,00
570,96	51540,00
571,41	52578,00
571,87	52778,00
572,33	53328,00
572,78	53040,00
573,24	53318,00
573,70	53218,00
574,16	52872,00
574,61	52133,00
575,07	52116,00
575,53	52212,00
575,98	52702,00
576,44	52969,00
576,90	52900,00
577,36	52604,00
577,81	52038,00
578,27	52051,00
578,73	52638,00
579,18	53182,00
579,64	53564,00
580,10	53461,00
580,55	53629,00
581,01	53748,00
581,47	54220,00
581,92	54601,00
582,38	54904,00
582,84	54865,00
583,29	54727,00
583,75	54994,00
584,21	54428,00
584,66	54100,00
585,12	53167,00
585,57	53022,00
586,03	53382,00
586,49	53962,00
586,94	53973,00
587,40	53297,00
587,86	51620,00
588,31	48703,00
588,77	46542,00
589,22	46951,00
589,68	49210,00
590,14	50993,00
590,59	51641,00
591,05	51210,00
591,51	50594,00
591,96	51235,00
592,42	51681,00
592,87	52065,00
593,33	52103,00
593,78	51226,00
594,24	50531,00
594,70	51086,00
595,15	51840,00
595,61	52404,00
596,06	52733,00
596,52	52645,00
596,98	52429,00
597,43	52171,00
597,89	52285,00
598,34	52247,00
598,80	52565,00
599,25	53050,00
599,71	52961,00
600,16	52814,00
600,62	52584,00
601,08	52483,00
601,53	52432,00
601,99	52568,00
602,44	53422,00
602,90	53808,00
603,35	54174,00
603,81	54066,00
604,26	53957,00
604,72	53894,00
605,17	53945,00
605,63	53897,00
606,08	53359,00
606,54	53653,00
606,99	53814,00
607,45	53522,00
607,90	53122,00
608,36	53143,00
608,81	53065,00
609,27	53265,00
609,72	52875,00
610,18	52804,00
610,63	53348,00
611,09	53282,00
611,54	53118,00
612,00	53006,00
612,45	53237,00
612,91	52857,00
613,36	52292,00
613,82	52566,00
614,27	53248,00
614,73	53300,00
615,18	52942,00
615,64	52006,00
616,09	51472,00
616,54	51863,00
617,00	52767,00
617,45	53522,00
617,91	53816,00
618,36	53624,00
618,82	53405,00
619,27	54059,00
619,72	54230,00
620,18	54515,00
620,63	54702,00
621,09	53773,00
621,54	53753,00
622,00	54034,00
622,45	53713,00
622,90	53406,00
623,36	53556,00
623,81	53439,00
624,27	52916,00
624,72	52699,00
625,17	52593,00
625,63	52971,00
626,08	53493,00
626,54	53591,00
626,99	52770,00
627,44	51493,00
627,90	51701,00
628,35	52339,00
628,81	52632,00
629,26	52116,00
629,71	52040,00
630,17	52505,00
630,62	53043,00
631,07	52148,00
631,53	51951,00
631,98	52832,00
632,43	53284,00
632,89	53470,00
633,34	52785,00
633,79	53070,00
634,25	53494,00
634,70	53867,00
635,15	53549,00
635,61	53275,00
636,06	53320,00
636,51	53946,00
636,97	54175,00
637,42	54509,00
637,87	54313,00
638,33	54385,00
638,78	54034,00
639,23	53475,00
639,69	53325,00
640,14	53200,00
640,59	53293,00
641,05	53130,00
641,50	53349,00
641,95	53578,00
642,40	53922,00
642,86	53560,00
643,31	53639,00
643,76	53788,00
644,22	53679,00
644,67	53133,00
645,12	52743,00
645,57	52717,00
646,03	51933,00
646,48	51835,00
646,93	51304,00
647,38	51124,00
647,84	50932,00
648,29	51160,00
648,74	50682,00
649,19	50024,00
649,65	51239,00
650,10	52759,00
650,55	52660,00
651,00	51666,00
651,46	50989,00
651,91	51761,00
652,36	52424,00
652,81	52404,00
653,27	52376,00
653,72	52337,00
654,17	51583,00
654,62	50416,00
655,07	48961,00
655,53	46139,00
655,98	43564,00
656,43	46044,00
656,88	48863,00
657,33	50848,00
657,79	51924,00
658,24	52135,00
658,69	51988,00
659,14	51845,00
659,59	52681,00
660,05	52866,00
660,50	53133,00
660,95	53265,00
661,40	53637,00
661,85	53306,00
662,30	53327,00
662,76	52565,00
663,21	52746,00
663,66	52777,00
664,11	52879,00
664,56	53323,00
665,01	53363,00
665,47	53026,00
665,92	52783,00
666,37	52838,00
666,82	52773,00
667,27	53044,00
667,72	52866,00
668,17	53044,00
668,62	53188,00
669,08	53060,00
669,53	52792,00
669,98	52304,00
670,43	52602,00
670,88	52488,00
671,33	52148,00
671,78	52119,00
672,23	52627,00
672,69	52471,00
673,14	52587,00
673,59	52537,00
674,04	52416,00
674,49	52296,00
674,94	52016,00
675,39	52352,00
675,84	52619,00
676,29	52544,00
676,74	52097,00
677,19	52206,00
677,64	52359,00
678,10	52217,00
678,55	52074,00
679,00	52161,00
679,45	52184,00
679,90	52320,00
680,35	51939,00
680,80	51842,00
681,25	51848,00
681,70	51575,00
682,15	51572,00
682,60	51744,00
683,05	51580,00
683,50	51254,00
683,95	50757,00
684,40	50989,00
684,85	50891,00
685,30	50312,00
685,75	48916,00
686,20	44768,00
686,65	39409,00
687,10	38050,00
687,55	41343,00
688,00	43639,00
688,45	43774,00
688,90	43228,00
689,35	43526,00
689,80	44220,00
690,25	45468,00
690,70	45893,00
691,15	46392,00
691,60	46396,00
692,05	46092,00
692,50	45658,00
692,95	45373,00
693,40	44966,00
693,85	45011,00
694,30	45331,00
694,75	46060,00
695,20	46470,00
695,65	46858,00
696,10	47966,00
696,55	48673,00
697,00	48744,00
697,45	48036,00
697,90	47383,00
698,35	46925,00
698,80	46681,00
699,24	46442,00
699,69	46242,00
700,14	46066,00
700,59	46108,00
701,04	45940,00
701,49	45862,00
701,94	45620,00
702,39	46285,00
702,84	47026,00
703,29	47376,00
703,74	47567,00
704,19	48046,00
704,63	47972,00
705,08	47725,00
705,53	47487,00
705,98	47397,00
706,43	47684,00
706,88	48298,00
707,33	48078,00
707,78	48301,00
708,22	48352,00
708,67	48286,00
709,12	48258,00
709,57	48261,00
710,02	48148,00
710,47	48190,00
710,92	47992,00
711,37	48370,00
711,81	48547,00
712,26	48275,00
712,71	48108,00
713,16	47902,00
713,61	47715,00
714,06	47160,00
714,50	46634,00
714,95	46342,00
715,40	45705,00
715,85	44106,00
716,30	41262,00
716,75	38007,00
717,19	36082,00
717,64	35092,00
718,09	34766,00
718,54	33578,00
718,99	33489,00
719,43	33241,00
719,88	34167,00
720,33	36169,00
720,78	39240,00
721,23	41672,00
721,67	41934,00
722,12	41565,00
722,57	39629,00
723,02	37611,00
723,47	36009,00
723,91	36075,00
724,36	35912,00
724,81	36378,00
725,26	36310,00
725,70	36890,00
726,15	37354,00
726,60	37101,00
727,05	37160,00
727,49	36239,00
727,94	36886,00
728,39	37727,00
728,84	36804,00
729,28	37156,00
729,73	38307,00
730,18	38254,00
730,63	38449,00
731,07	39309,00
731,52	40452,00
731,97	41654,00
732,41	42871,00
732,86	43458,00
733,31	44106,00
733,76	45079,00
734,20	45328,00
734,65	45054,00
735,10	44929,00
735,54	45058,00
735,99	44897,00
736,44	45213,00
736,89	45797,00
737,33	46096,00
737,78	45969,00
738,23	45542,00
738,67	45757,00
739,12	46192,00
739,57	46671,00
740,01	46948,00
740,46	47129,00
740,91	46905,00
741,35	46816,00
741,80	47088,00
742,25	47511,00
742,69	47744,00
743,14	48064,00
743,59	47955,00
744,03	48085,00
744,48	47849,00
744,92	48264,00
745,37	48428,00
745,82	48170,00
746,26	48039,00
746,71	48015,00
747,16	47778,00
747,60	47499,00
748,05	47599,00
748,49	47480,00
748,94	47283,00
749,39	47463,00
749,83	47611,00
750,28	47346,00
750,73	47234,00
751,17	47034,00
751,62	47026,00
752,06	46969,00
752,51	46460,00
752,95	46706,00
753,40	46836,00
753,85	46769,00
754,29	46823,00
754,74	46680,00
755,18	46493,00
755,63	46163,00
756,07	46018,00
756,52	45768,00
756,97	45326,00
757,41	45033,00
757,86	44284,00
758,30	42215,00
758,75	36450,00
759,19	29200,00
759,64	18988,00
760,08	13916,00
760,53	14041,00
760,98	17488,00
761,42	20893,00
761,87	23735,00
762,31	21788,00
762,76	20331,00
763,20	20964,00
763,65	22949,00
764,09	25200,00
764,54	27685,00
764,98	30162,00
765,43	32462,00
765,87	34482,00
766,32	36310,00
766,76	38433,00
767,21	39930,00
767,65	41061,00
768,10	41942,00
768,54	42907,00
768,99	43508,00
769,43	44210,00
769,88	44630,00
770,32	44809,00
770,77	45059,00
771,21	44524,00
771,65	44297,00
772,10	44540,00
772,54	44346,00
772,99	44601,00
773,43	44455,00
773,88	44393,00
774,32	44099,00
774,77	44322,00
775,21	44618,00
775,65	44991,00
776,10	45009,00
776,54	44854,00
776,99	44648,00
777,43	44030,00
777,88	43995,00
778,32	43820,00
778,76	43696,00
779,21	43584,00
779,65	43790,00
780,10	43754,00
780,54	43924,00
780,99	44397,00
781,43	44280,00
781,87	44156,00
782,32	43768,00
782,76	43452,00
783,20	42976,00
783,65	42620,00
784,09	42530,00
784,54	42340,00
784,98	42165,00
785,42	42287,00
785,87	42181,00
786,31	42037,00
786,75	42046,00
787,20	41813,00
787,64	41615,00
788,09	40973,00
788,53	40468,00
788,97	39875,00
789,42	39221,00
789,86	39429,00
790,30	39336,00
790,75	39321,00
791,19	39281,00
791,63	39516,00
792,08	39572,00
792,52	39648,00
792,96	39701,00
793,41	39989,00
793,85	39739,00
794,29	39228,00
794,74	38557,00
795,18	38176,00
795,62	37888,00
796,06	37396,00
796,51	38002,00
796,95	38822,00
797,39	39152,00
797,84	39543,00
798,28	39423,00
798,72	38916,00
799,16	38413,00
799,61	37811,00
800,05	36978,00
800,49	36959,00
800,94	36842,00
801,38	36576,00
801,82	36909,00
802,26	36997,00
802,71	37077,00
803,15	37748,00
803,59	37590,00
804,03	37979,00
804,48	37743,00
804,92	37697,00
805,36	37780,00
805,80	37288,00
806,25	36858,00
806,69	36667,00
807,13	36312,00
807,57	36465,00
808,01	36458,00
808,46	35961,00
808,90	36074,00
809,34	36080,00
809,78	35875,00
810,23	35699,00
810,67	35523,00
811,11	34813,00
811,55	33811,00
811,99	32901,00
812,44	31661,00
812,88	30953,00
813,32	29211,00
813,76	28598,00
814,20	28083,00
814,64	27742,00
815,09	27150,00
815,53	27020,00
815,97	27300,00
816,41	26574,00
816,85	26665,00
817,29	27792,00
817,74	26872,00
818,18	26733,00
818,62	27080,00
819,06	27434,00
819,50	28161,00
819,94	28196,00
820,39	30083,00
820,83	30593,00
821,27	29411,00
821,71	27817,00
822,15	26937,00
822,59	25823,00
823,03	24965,00
823,47	27834,00
823,92	30286,00
824,36	30447,00
824,80	30829,00
825,24	30893,00
825,68	29915,00
826,12	29493,00
826,56	29746,00
827,00	29653,00
827,44	28351,00
827,88	28277,00
828,33	29471,00
828,77	29537,00
829,21	29395,00
829,65	29964,00
830,09	30280,00
830,53	29715,00
830,97	29769,00
831,41	29608,00
831,85	28905,00
832,29	29115,00
832,73	29766,00
833,17	29743,00
833,61	30463,00
834,05	31248,00
834,49	32214,00
834,93	32530,00
835,37	32482,00
835,82	32540,00
836,26	32227,00
836,70	31965,00
837,14	31991,00
837,58	31484,00
838,02	31836,00
838,46	31856,00
838,90	32175,00
839,34	32719,00
839,78	32994,00
840,22	33551,00
840,66	33514,00
841,10	34045,00
841,54	34129,00
841,98	34064,00
842,42	33849,00
842,86	33452,00
843,30	32929,00
843,74	32242,00
844,18	31977,00
844,62	31989,00
845,06	32348,00
845,50	32748,00
845,94	32877,00
846,37	33377,00
846,81	33484,00
847,25	34074,00
847,69	34385,00
848,13	34361,00
848,57	33609,00
849,01	33493,00
849,45	32805,00
849,89	31504,00
850,33	31908,00
850,77	32224,00
851,21	31951,00
851,65	31623,00
852,09	31482,00
852,53	31153,00
852,97	29843,00
853,40	29685,00
853,84	29400,00
854,28	29019,00
854,72	31238,00
855,16	32935,00
855,60	33508,00
856,04	33921,00
856,48	33591,00
856,92	33076,00
857,36	32629,00
857,79	32083,00
858,23	31481,00
858,67	31454,00
859,11	31528,00
859,55	31761,00
859,99	31980,00
860,43	32638,00
860,87	33108,00
861,30	33425,00
861,74	33974,00
862,18	33894,00
862,62	34032,00
863,06	33517,00
863,50	33038,00
863,94	32418,00
864,37	31526,00
864,81	30264,00
865,25	29597,00
865,69	29564,00
866,13	28539,00
866,57	29311,00
867,00	30866,00
867,44	31664,00
867,88	32255,00
868,32	32860,00
868,76	32821,00
869,19	32844,00
869,63	32833,00
870,07	32166,00
870,51	31662,00
870,95	30704,00
871,38	30310,00
871,82	29909,00
872,26	30060,00
872,70	30035,00
873,14	30507,00
873,57	30633,00
874,01	31456,00
874,45	31817,00
874,89	32123,00
875,32	32300,00
875,76	32302,00
876,20	32041,00
876,64	32120,00
877,07	31383,00
877,51	31165,00
877,95	30453,00
878,39	30038,00
878,82	29803,00
879,26	28862,00
879,70	28999,00
880,14	29202,00
880,57	28947,00
881,01	29701,00
881,45	30594,00
881,89	31489,00
882,32	31660,00
882,76	32235,00
883,20	32682,00
883,63	32202,00
884,07	31939,00
884,51	31245,00
884,94	30462,00
885,38	29909,00
885,82	29003,00
886,26	28473,00
886,69	28074,00
887,13	28432,00
887,57	28611,00
888,00	28650,00
888,44	29306,00
888,88	29784,00
889,31	30296,00
889,75	30380,00
890,19	30574,00
890,62	31023,00
891,06	30961,00
891,50	30684,00
891,93	30117,00
892,37	29455,00
892,81	27810,00
893,24	26942,00
893,68	26089,00
894,11	25213,00
894,55	24252,00
894,99	23183,00
895,42	22468,00
895,86	22589,00
896,30	21881,00
896,73	22250,00
897,17	22031,00
897,60	21508,00
898,04	22695,00
898,48	22759,00
898,91	19778,00
899,35	20927,00
899,78	22100,00
900,22	20666,00
900,66	20167,00
901,09	20125,00
901,53	20292,00
901,96	20685,00
902,40	20925,00
902,84	21515,00
903,27	22711,00
903,71	23842,00
904,14	23502,00
904,58	23848,00
905,01	23254,00
905,45	23345,00
905,88	22516,00
906,32	21821,00
906,76	21216,00
907,19	20715,00
907,63	20919,00
908,06	20355,00
908,50	20338,00
908,93	19738,00
909,37	19481,00
909,80	19517,00
910,24	19354,00
910,67	18752,00
911,11	19960,00
911,54	19259,00
911,98	18585,00
912,41	19639,00
912,85	19527,00
913,28	18964,00
913,72	19231,00
914,15	20377,00
914,59	21377,00
915,02	20386,00
915,46	19091,00
915,89	19060,00
916,33	19426,00
916,76	19335,00
917,20	18352,00
917,63	18273,00
918,07	19262,00
918,50	20216,00
918,94	21460,00
919,37	21231,00
919,81	22070,00
920,24	22410,00
920,67	22540,00
921,11	22665,00
921,54	22124,00
921,98	22552,00
922,41	22639,00
922,85	22342,00
923,28	21692,00
923,72	21160,00
924,15	20949,00
924,58	20319,00
925,02	20423,00
925,45	19994,00
925,89	19085,00
926,32	18304,00
926,75	17825,00
927,19	16965,00
927,62	15837,00
928,06	14863,00
928,49	14110,00
928,92	13900,00
929,36	13378,00
929,79	12376,00
930,23	11712,00
930,66	10931,00
931,09	10072,00
931,53	9219,00
931,96	8073,00
932,39	7413,00
932,83	7222,00
933,26	6932,00
933,70	6409,00
934,13	5922,00
934,56	6319,00
935,00	6874,00
935,43	6195,00
935,86	6144,00
936,30	6386,00
936,73	6074,00
937,16	6447,00
937,60	7004,00
938,03	7270,00
938,46	7756,00
938,90	8401,00
939,33	8902,00
939,76	8194,00
940,19	7650,00
940,63	7312,00
941,06	6893,00
941,49	6571,00
941,93	6793,00
942,36	6355,00
942,79	5809,00
943,23	6422,00
943,66	6326,00
944,09	5723,00
944,52	6079,00
944,96	6618,00
945,39	6507,00
945,82	6296,00
946,26	6588,00
946,69	6825,00
947,12	7184,00
947,55	7408,00
947,99	6917,00
948,42	6995,00
948,85	7695,00
949,28	7416,00
949,72	6772,00
950,15	6903,00
950,58	7317,00
951,01	7695,00
951,45	7353,00
951,88	7051,00
952,31	7097,00
952,74	7438,00
953,17	8113,00
953,61	8690,00
954,04	8519,00
954,47	8440,00
954,90	8844,00
955,33	8644,00
955,77	9277,00
956,20	9487,00
956,63	8906,00
957,06	9507,00
957,49	9807,00
957,93	9289,00
958,36	9232,00
958,79	8933,00
959,22	8685,00
959,65	9327,00
960,08	9805,00
960,52	9752,00
960,95	10337,00
961,38	10989,00
961,81	11172,00
962,24	10696,00
962,67	11600,00
963,11	12462,00
963,54	12436,00
963,97	12404,00
964,40	12455,00
964,83	12433,00
965,26	12755,00
965,69	12888,00
966,13	12603,00
966,56	12603,00
966,99	13355,00
967,42	14295,00
967,85	14214,00
968,28	14295,00
968,71	14704,00
969,14	14868,00
969,57	14893,00
970,01	14787,00
970,44	15273,00
970,87	15376,00
971,30	15423,00
971,73	15432,00
972,16	15268,00
972,59	15284,00
973,02	15431,00
973,45	14894,00
973,88	14892,00
974,31	14839,00
974,74	14682,00
975,17	14613,00
975,61	14293,00
976,04	13957,00
976,47	14053,00
976,90	14528,00
977,33	14482,00
977,76	14282,00
978,19	14293,00
978,62	14388,00
979,05	14810,00
979,48	15203,00
979,91	15790,00
980,34	16224,00
980,77	16758,00
981,20	17011,00
981,63	17240,00
982,06	17475,00
982,49	17279,00
982,92	17420,00
983,35	17762,00
983,78	17761,00
984,21	17704,00
984,64	17482,00
985,07	17472,00
985,50	17300,00
985,93	17177,00
986,36	16956,00
986,79	16633,00
987,22	16283,00
987,65	16296,00
988,08	16428,00
988,51	16598,00
988,94	16737,00
989,37	16763,00
989,80	16947,00
990,23	17394,00
990,66	17576,00
991,09	17835,00
991,51	18202,00
991,94	18213,00
992,37	18161,00
992,80	17925,00
993,23	17920,00
993,66	17788,00
994,09	17473,00
994,52	17258,00
994,95	17066,00
995,38	16704,00
995,81	16452,00
996,24	16217,00
996,67	16169,00
997,09	16034,00
997,52	15857,00
997,95	15950,00
998,38	15981,00
998,81	15982,00
999,24	16064,00
999,67	16258,00
1000,10	16241,00
1000,53	16584,00
1000,95	16674,00
1001,38	16561,00
1001,81	16550,00
1002,24	16544,00
1002,67	16254,00
1003,10	16079,00
1003,53	15610,00
1003,95	15374,00
1004,38	14868,00
1004,81	14641,00
1005,24	14512,00
1005,67	14378,00
1006,10	14201,00
1006,52	14108,00
1006,95	14074,00
1007,38	14135,00
1007,81	14082,00
1008,24	14154,00
1008,67	14201,00
1009,09	14183,00
1009,52	14408,00
1009,95	14255,00
1010,38	14364,00
1010,81	14409,00
1011,23	14490,00
1011,66	14452,00
1012,09	14366,00
1012,52	14289,00
1012,95	14238,00
1013,37	14039,00
1013,80	13888,00
1014,23	13467,00
1014,66	13298,00
1015,08	12959,00
1015,51	12970,00
1015,94	12794,00
1016,37	12772,00
1016,80	12741,00
1017,22	12850,00
1017,65	13055,00
1018,08	13095,00
1018,51	13225,00
1018,93	13224,00
1019,36	13411,00
1019,79	13456,00
1020,21	13576,00
1020,64	13744,00
1021,07	13646,00
1021,50	13754,00
1021,92	13797,00
1022,35	13815,00
1022,78	13766,00
1023,21	13952,00
1023,63	13790,00
1024,06	13556,00
1024,49	13379,00
1024,91	13295,00
1025,34	13173,00
1025,77	12903,00
1026,19	12772,00
1026,62	12701,00
1027,05	12652,00
1027,47	12627,00
1027,90	12549,00
1028,33	12594,00
1028,75	12618,00
1029,18	12833,00
1029,61	12984,00
1030,03	13015,00
1030,46	12909,00
1030,89	12979,00
1031,31	12994,00
1031,74	12839,00
1032,17	12672,00
1032,59	12635,00
1033,02	12445,00
1033,45	12337,00
1033,87	12067,00
1034,30	11902,00
1034,73	11738,00
1035,15	11675,00
1035,58	11424,00
1036,00	11242,00
1036,43	11029,00
1036,86	10975,00
1037,28	10815,00
1037,71	10725,00
1038,13	10716,00
1038,56	10763,00
1038,99	10693,00
1039,41	10715,00
1039,84	10771,00
1040,26	10700,00
1040,69	10736,00
1041,11	10731,00
1041,54	10704,00
1041,97	10774,00
1042,39	10627,00
1042,82	10494,00
1043,24	10370,00
1043,67	10147,00
1044,09	9976,00
1044,52	9836,00
1044,95	9820,00
1045,37	9638,00
1045,80	9537,00
1046,22	9372,00
1046,65	9193,00
1047,07	9099,00
1047,50	9037,00
1047,92	9067,00
1048,35	8846,00
1048,77	8887,00
1049,20	8801,00
1049,62	8772,00
1050,05	8712,00
1050,47	8746,00
1050,90	8730,00
1051,32	8742,00
1051,75	8628,00
1052,17	8642,00
1052,60	8600,00
1053,02	8540,00
1053,45	8442,00
1053,87	8394,00
1054,30	8294,00
1054,72	8246,00
1055,15	8096,00
1055,57	8055,00
1056,00	8010,00
1056,42	7956,00
1056,85	7778,00
1057,27	7710,00
1057,70	7602,00
1058,12	7572,00
1058,54	7317,00
1058,97	7333,00
1059,39	7299,00
1059,82	7149,00
1060,24	7082,00
1060,67	7030,00
1061,09	6952,00
1061,51	6877,00
1061,94	6890,00
1062,36	6860,00
1062,79	6886,00
1063,21	6817,00
1063,64	6736,00
1064,06	6700,00
1064,48	6698,00
1064,91	6671,00
1065,33	6648,00
1065,76	6542,00
1066,18	6473,00
1066,60	6503,00
1067,03	6422,00
1067,45	6363,00
1067,87	6334,00
1068,30	6288,00
1068,72	6171,00
1069,15	6128,00
1069,57	6118,00
1069,99	5984,00
1070,42	5980,00
1070,84	5929,00
1071,26	5957,00
1071,69	5859,00
1072,11	5785,00
1072,53	5706,00
1072,96	5681,00
1073,38	5711,00
1073,80	5697,00
1074,23	5599,00
1074,65	5615,00
1075,07	5600,00
1075,50	5600,00
1075,92	5583,00
1076,34	5569,00
1076,77	5497,00
1077,19	5576,00
1077,61	5505,00
1078,04	5443,00
1078,46	5440,00
1078,88	5384,00
1079,30	5302,00
1079,73	5349,00
1080,15	5228,00
1080,57	5147,00
1081,00	5089,00
1081,42	5054,00
1081,84	5050,00
1082,26	5005,00
1082,69	4932,00
1083,11	4928,00
1083,53	4892,00
1083,95	4864,00
1084,38	4856,00
1084,80	4855,00
1085,22	4794,00
1085,64	4768,00
1086,07	4715,00
1086,49	4672,00
1086,91	4707,00
1087,33	4685,00
1087,76	4693,00
1088,18	5897,00
1088,60	4636,00
1089,02	4633,00
1089,45	4579,00
1089,87	4577,00
1090,29	4573,00
1090,71	4515,00
1091,13	4425,00
1091,56	4451,00
1091,98	4281,00
1092,40	4268,00
1092,82	4294,00
1093,24	4219,00
1093,66	4170,00
1094,09	4179,00
1094,51	4122,00
1094,93	4145,00
1095,35	4020,00
1095,77	3994,00
1096,19	4053,00
1096,62	4006,00
1097,04	3977,00
1097,46	3934,00
1097,88	3902,00
1098,30	3888,00
1098,72	3914,00
1099,15	3916,00
1099,57	3841,00
1099,99	3848,00
1100,41	3801,00
1100,83	3747,00
1101,25	3732,00
1101,67	3667,00
1102,09	3577,00
1102,52	3594,00
1102,94	3585,00
1103,36	3581,00
1103,78	3549,00
1104,20	3493,00
1104,62	3589,00
1105,04	3451,00
1105,46	3469,00
1105,88	3437,00
1106,30	3437,00
1106,73	3494,00
1107,15	3396,00
1107,57	3359,00
1107,99	3389,00
1108,41	3309,00
1108,83	3317,00
1109,25	3331,00
1109,67	3270,00
1110,09	3181,00
1110,51	3201,00
1110,93	3184,00
1111,35	3188,00
1111,77	3157,00
1112,19	3139,00
1112,61	3058,00
1113,03	3078,00
1113,45	3082,00
1113,87	3035,00
1114,29	3032,00
1114,71	2982,00
1115,13	2962,00
1115,55	2929,00
1115,98	2918,00
1116,40	2941,00
1116,82	2849,00
1117,24	2837,00
1117,66	2808,00
1118,08	2181,00
1118,50	2195,00
1118,91	2190,00
1119,33	2191,00
>>>>>End Processed Spectral Data<<<<<
